t,tp,r,y,u,freq,status,dt_plant,dt
   0.000,   0.000,  49.710,   0.000,   0.000,   0.000,   0.000,1602.972,  60.000
   0.060,84320.000,  49.900,   0.000,   0.000,   0.000,   0.000,  84.320,  60.000
   0.129,152628.000,  49.900,   0.000,   0.010,   0.000,   0.000,  68.308,  68.652
   0.189,212324.000,  49.900,   0.000,   0.010,   0.000,   0.000,  59.696,  60.002
   0.249,272840.000,  49.900,   0.000,   0.010,   0.000,   0.000,  60.516,  60.014
   0.309,332644.000,  49.900,   0.000,   0.010,   0.000,   0.000,  59.804,  60.000
   0.369,393060.000,  49.900,   0.000,   0.010,   0.000,   0.000,  60.416,  60.012
   0.429,452824.000,  49.900,   0.000,   0.010,   0.000,   0.000,  59.764,  60.001
   0.489,512660.000,  49.900,   0.000,   0.020,   0.000,   0.000,  59.836,  60.012
   0.549,573184.000,  49.900,   0.000,   0.020,   0.000,   0.000,  60.524,  60.007
   0.609,632976.000,  49.900,   0.000,   0.020,   0.000,   0.000,  59.792,  60.009
   0.669,693476.000,  49.900,   0.000,   0.020,   0.000,   0.000,  60.500,  60.012
   0.729,753196.000,  49.900,   0.000,   0.030,   0.000,   0.000,  59.720,  60.008
   0.789,813632.000,  49.900,   0.000,   0.030,   0.000,   0.000,  60.436,  60.002
   0.849,873428.000,  49.900,   0.000,   0.030,   0.000,   0.000,  59.796,  60.012
   0.909,933928.000,  49.900,   0.000,   0.040,   0.000,   0.000,  60.500,  60.003
   0.969,993716.000,  49.900,   0.000,   0.040,   0.000,   0.000,  59.788,  60.004
   1.031,1055640.000,  49.900,   0.000,   0.050,   0.000,   0.000,  61.924,  62.388
   1.091,1116128.000,  49.900,   0.000,   0.050,   0.000,   0.000,  60.488,  60.004
   1.151,1175820.000,  49.900,   0.000,   0.060,   0.000,   0.000,  59.692,  60.002
   1.211,1236384.000,  49.900,   0.000,   0.070,   0.000,   0.000,  60.564,  60.007
   1.273,1298300.000,  49.900,   0.000,   0.080,   0.000,   0.000,  61.916,  61.908
   1.333,1358024.000,  49.900,   0.000,   0.090,   0.000,   0.000,  59.724,  60.015
   1.393,1418528.000,  49.900,   0.000,   0.100,   0.000,   0.000,  60.504,  60.011
   1.453,1478388.000,  49.900,   0.000,   0.110,   0.000,   0.000,  59.860,  60.004
   1.513,1538204.000,  49.900,   0.000,   0.120,   0.000,   0.000,  59.816,  60.002
   1.573,1598636.000,  49.900,   0.000,   0.140,   0.000,   0.000,  60.432,  60.011
   1.633,1658436.000,  49.900,   0.000,   0.150,   0.000,   0.000,  59.800,  60.001
   1.693,1718936.000,  49.900,   0.000,   0.170,   0.000,   0.000,  60.500,  60.002
   1.753,1778664.000,  49.900,   0.000,   0.200,   0.000,   0.000,  59.728,  60.005
   1.813,1839160.000,  49.900,   0.000,   0.220,   0.000,   0.000,  60.496,  60.005
   1.873,1898976.000,  49.900,   0.000,   0.250,   0.000,   0.000,  59.816,  60.012
   1.933,1958776.000,  49.900,   0.000,   0.280,   0.000,   0.000,  59.800,  60.011
   1.993,2019300.000,  49.900,   0.000,   0.320,   0.000,   0.000,  60.524,  60.007
   2.053,2079004.000,  49.900,   0.000,   0.350,   0.000,   0.000,  59.704,  60.002
   2.113,2139496.000,  49.900,   0.000,   0.400,   0.000,   0.000,  60.492,  60.011
   2.173,2199264.000,  49.900,   0.000,   0.450,   0.000,   0.000,  59.768,  60.010
   2.233,2259752.000,  49.900,   0.000,   0.500,   0.000,   0.000,  60.488,  60.010
   2.293,2319516.000,  49.900,   0.000,   0.570,   0.000,   0.000,  59.764,  60.004
   2.353,2380016.000,  49.900,   0.000,   0.640,   0.000,   0.000,  60.500,  60.011
   2.413,2439824.000,  49.900,   0.000,   0.720,   0.000,   0.000,  59.808,  60.008
   2.473,2500352.000,  49.900,   0.000,   0.800,   0.000,   0.000,  60.528,  60.012
   2.533,2560172.000,  49.900,   0.000,   0.900,   0.000,   0.000,  59.820,  60.002
   2.593,2619948.000,  49.900,   0.000,   1.010,   0.000,   0.000,  59.776,  60.009
   2.653,2680408.000,  49.900,   0.000,   1.130,   0.000,   0.000,  60.460,  60.001
   2.713,2740204.000,  49.900,   0.000,   1.270,   0.000,   0.000,  59.796,  60.008
   2.773,2800692.000,  49.900,   0.000,   1.420,   0.000,   0.000,  60.488,  60.004
   2.833,2860488.000,  49.900,   0.000,   1.580,   0.000,   0.000,  59.796,  60.010
   2.893,2920280.000,  49.900,   0.000,   1.770,   0.000,   0.000,  59.792,  60.003
   2.953,2980712.000,  49.900,   0.000,   1.970,   0.000,   0.000,  60.432,  60.001
   3.013,3041184.000,  49.900,   0.000,   2.190,   0.000,   0.000,  60.472,  60.009
   3.073,3100960.000,  49.900,   0.000,   2.440,   0.000,   0.000,  59.776,  60.011
   3.133,3161448.000,  49.900,   0.000,   2.710,   0.000,   0.000,  60.488,  60.016
   3.193,3221084.000,  49.900,   0.070,   3.000,   0.000,   0.000,  59.636,  60.008
   3.256,3283624.000,  49.900,   0.130,   3.320,   0.000,   0.000,  62.540,  62.329
   3.316,3343984.000,  50.000,   0.330,   3.680,   0.000,   0.000,  60.360,  60.006
   3.376,3404384.000,  50.000,   0.530,   4.060,   0.000,   0.000,  60.400,  60.009
   3.436,3464028.000,  49.900,   0.860,   4.460,   0.000,   0.000,  59.644,  60.002
   3.497,3525008.000,  49.900,   1.380,   4.890,   0.000,   0.000,  60.980,  61.127
   3.557,3585268.000,  49.900,   2.110,   5.350,   0.000,   0.000,  60.260,  60.000
   3.617,3645536.000,  49.900,   3.030,   5.840,   0.000,   0.000,  60.268,  60.009
   3.677,3705784.000,  49.900,   4.020,   6.340,   0.000,   0.000,  60.248,  60.002
   3.737,3765916.000,  49.900,   5.010,   6.880,   0.000,   0.000,  60.132,  60.007
   3.797,3825416.000,  49.900,   5.870,   7.430,   0.000,   0.000,  59.500,  60.000
   3.857,3885692.000,  50.000,   6.460,   8.000,   0.000,   0.000,  60.276,  60.002
   3.920,3949584.000,  49.900,   6.990,   8.580,   0.000,   0.000,  63.892,  63.501
   3.981,4009868.000,  49.900,   7.650,   9.200,   0.000,   0.000,  60.284,  60.741
   4.041,4070000.000,  50.000,   8.500,   9.810,   0.000,   0.000,  60.132,  60.014
   4.101,4130104.000,  49.900,   9.890,  10.410,   0.000,   0.000,  60.104,  60.003
   4.161,4190344.000,  49.900,  11.870,  11.010,   0.000,   0.000,  60.240,  60.008
   4.221,4250680.000,  49.900,  14.040,  11.600,   0.000,   0.000,  60.336,  60.000
   4.281,4310176.000,  49.900,  15.890,  12.180,   0.000,   0.000,  59.496,  60.004
   4.341,4370528.000,  49.900,  17.200,  12.740,   0.000,   0.000,  60.352,  60.011
   4.410,4439720.000,  49.900,  17.730,  13.280,   0.000,   0.000,  69.192,  68.485
   4.474,4504608.000,  49.900,  17.400,  13.880,   0.000,   0.000,  64.888,  64.874
   4.535,4565052.000,  49.900,  16.680,  14.420,   0.000,   0.000,  60.444,  60.487
   4.595,4624516.000,  49.900,  15.890,  14.890,   0.000,   0.000,  59.464,  60.007
   4.655,4684812.000,  49.900,  15.560,  15.330,   0.000,   0.000,  60.296,  60.003
   4.717,4747940.000,  49.900,  15.950,  15.750,   0.000,   0.000,  63.128,  62.492
   4.837,4867568.000,  49.900,  20.370,  16.150,   0.000,   0.000, 119.628, 119.671
   4.897,4927384.000,  49.900,  23.800,  16.840,   0.000,   0.000,  59.816,  60.006
   4.957,4987212.000,  49.900,  26.960,  17.150,   0.000,   0.000,  59.828,  60.008
   5.017,5047720.000,  49.900,  29.400,  17.430,   0.000,   0.000,  60.508,  60.017
   5.077,5107492.000,  49.900,  30.590,  17.690,   0.000,   0.000,  59.772,  60.010
   5.137,5168028.000,  49.900,  30.450,  17.920,   0.000,   0.000,  60.536,  60.009
   5.197,5227824.000,  49.900,  29.330,  18.130,   0.000,   0.000,  59.796,  60.000
   5.264,5294852.000,  50.000,  27.490,  18.330,   0.000,   0.000,  67.028,  66.620
   5.327,5358300.000,  50.000,  25.840,  18.520,   0.000,   0.000,  63.448,  63.511
   5.387,5418044.000,  49.900,  24.790,  18.690,   0.000,   0.000,  59.744,  60.001
   5.450,5480744.000,  49.900,  24.650,  18.830,   0.000,   0.000,  62.700,  62.609
   5.510,5541224.000,  49.900,  25.640,  18.960,   0.000,   0.000,  60.480,  60.011
   5.570,5601020.000,  49.900,  27.420,  19.070,   0.000,   0.000,  59.796,  60.003
   5.631,5662264.000,  49.900,  29.530,  19.170,   0.000,   0.000,  61.244,  61.289
   5.691,5722756.000,  50.000,  31.250,  19.260,   0.000,   0.000,  60.492,  60.003
   5.751,5782548.000,  49.900,  32.300,  19.340,   0.000,   0.000,  59.792,  60.001
   5.811,5842248.000,  49.900,  32.500,  19.420,   0.000,   0.000,  59.700,  60.003
   5.871,5902776.000,  49.900,  31.900,  19.480,   0.000,   0.000,  60.528,  60.005
   5.932,5963992.000,  49.900,  30.650,  19.540,   0.000,   0.000,  61.216,  60.644
   5.992,6023772.000,  49.900,  29.140,  19.590,   0.000,   0.000,  59.780,  60.014
   6.055,6087156.000,  49.900,  27.950,  19.630,   0.000,   0.000,  63.384,  63.118
   6.115,6146888.000,  49.900,  27.220,  19.680,   0.000,   0.000,  59.732,  60.244
   6.175,6207456.000,  49.900,  27.290,  19.710,   0.000,   0.000,  60.568,  60.003
   6.235,6267240.000,  49.900,  28.210,  19.750,   0.000,   0.000,  59.784,  60.004
   6.295,6327764.000,  49.900,  29.660,  19.770,   0.000,   0.000,  60.524,  60.008
   6.355,6387552.000,  49.900,  31.440,  19.800,   0.000,   0.000,  59.788,  60.007
   6.415,6447296.000,  49.900,  32.830,  19.820,   0.000,   0.000,  59.744,  60.008
   6.475,6507756.000,  49.900,  33.620,  19.840,   0.000,   0.000,  60.460,  60.002
   6.535,6567432.000,  49.900,  33.550,  19.860,   0.000,   0.000,  59.676,  60.009
   6.595,6627960.000,  49.900,  32.700,  19.880,   0.000,   0.000,  60.528,  60.000
   6.655,6687708.000,  49.900,  31.380,  19.890,   0.000,   0.000,  59.748,  60.002
   6.715,6748204.000,  49.900,  29.790,  19.900,   0.000,   0.000,  60.496,  60.086
   6.775,6808696.000,  49.900,  28.480,  19.910,   0.000,   0.000,  60.492,  60.021
   6.835,6868536.000,  49.900,  27.750,  19.920,   0.000,   0.000,  59.840,  60.001
   6.899,6932692.000,  49.900,  27.820,  19.930,   0.000,   0.000,  64.156,  64.055
   6.959,6992488.000,  50.000,  28.610,  19.940,   0.000,   0.000,  59.796,  60.003
   7.019,7053036.000,  50.000,  29.860,  19.950,   0.000,   0.000,  60.548,  60.005
   7.079,7112780.000,  49.900,  31.380,  19.950,   0.000,   0.000,  59.744,  60.012
   7.139,7173292.000,  49.900,  32.560,  19.960,   0.000,   0.000,  60.512,  60.009
   7.199,7233008.000,  49.900,  33.290,  19.960,   0.000,   0.000,  59.716,  60.009
   7.259,7293468.000,  49.900,  33.290,  19.970,   0.000,   0.000,  60.460,  60.010
   7.319,7353148.000,  49.900,  32.560,  19.970,   0.000,   0.000,  59.680,  60.009
   7.379,7413640.000,  49.900,  31.440,  19.970,   0.000,   0.000,  60.492,  60.010
   7.439,7473476.000,  49.900,  30.120,  19.980,   0.000,   0.000,  59.836,  60.005
   7.499,7533220.000,  49.900,  29.070,  19.980,   0.000,   0.000,  59.744,  60.004
   7.559,7593780.000,  49.900,  28.540,  19.980,   0.000,   0.000,  60.560,  60.002
   7.620,7653592.000,  49.900,  28.610,  19.980,   0.000,   0.000,  59.812,  60.002
   7.680,7714144.000,  49.900,  29.330,  19.990,   0.000,   0.000,  60.552,  60.010
   7.740,7773932.000,  50.000,  30.450,  19.990,   0.000,   0.000,  59.788,  60.007
   7.800,7833720.000,  49.900,  31.710,  19.990,   0.000,   0.000,  59.788,  60.008
   7.860,7894180.000,  49.900,  32.760,  19.990,   0.000,   0.000,  60.460,  60.006
   7.920,7953896.000,  49.900,  33.290,  19.990,   0.000,   0.000,  59.716,  60.009
   7.980,8014280.000,  49.900,  33.220,  19.990,   0.000,   0.000,  60.384,  60.002
   8.040,8073980.000,  49.900,  32.500,  19.990,   0.000,   0.000,  59.700,  60.002
   8.100,8134436.000,  49.900,  31.380,  19.990,   0.000,   0.000,  60.456,  60.011
   8.160,8194188.000,  49.900,  30.190,  19.990,   0.000,   0.000,  59.752,  60.010
   8.220,8254724.000,  49.900,  29.270,  20.000,   0.000,   0.000,  60.536,  60.000
   8.280,8314528.000,  50.000,  28.870,  20.000,   0.000,   0.000,  59.804,  60.013
   8.340,8375004.000,  49.900,  29.070,  20.000,   0.000,   0.000,  60.476,  60.010
   8.400,8434752.000,  49.900,  29.790,  20.000,   0.000,   0.000,  59.748,  60.002
   8.460,8494572.000,  49.900,  30.850,  20.000,   0.000,   0.000,  59.820,  60.001
   8.520,8555144.000,  49.900,  31.900,  20.000,   0.000,   0.000,  60.572,  60.010
   8.580,8614896.000,  49.900,  32.700,  20.000,   0.000,   0.000,  59.752,  60.003
   8.640,8675328.000,  49.900,  33.020,  20.000,   0.000,   0.000,  60.432,  60.009
   8.700,8735040.000,  49.900,  32.700,  20.000,   0.000,   0.000,  59.712,  60.001
   8.760,8795500.000,  49.900,  31.970,  20.000,   0.000,   0.000,  60.460,  60.009
   8.820,8855280.000,  49.900,  30.920,  20.000,   0.000,   0.000,  59.780,  60.003
   8.880,8915832.000,  49.900,  29.860,  20.000,   0.000,   0.000,  60.552,  60.002
   8.940,8975612.000,  49.900,  29.070,  20.000,   0.000,   0.000,  59.780,  60.002
   9.000,9035420.000,  50.000,  28.740,  20.000,   0.000,   0.000,  59.808,  60.006
   9.060,9095956.000,  49.900,  29.000,  20.000,   0.000,   0.000,  60.536,  60.005
   9.120,9155752.000,  49.900,  29.660,  20.000,   0.000,   0.000,  59.796,  60.006
   9.180,9216264.000,  49.900,  30.650,  20.000,   0.000,   0.000,  60.512,  60.002
   9.240,9276072.000,  49.900,  31.510,  20.000,   0.000,   0.000,  59.808,  60.009
   9.300,9336548.000,  49.900,  32.170,  20.000,   0.000,   0.000,  60.476,  60.631
   9.360,9397092.000,  49.900,  32.230,  20.000,   0.000,   0.000,  60.544,  60.003
   9.420,9456852.000,  49.900,  31.770,  20.000,   0.000,   0.000,  59.760,  60.003
   9.484,9520268.000,  49.900,  30.980,  20.000,   0.000,   0.000,  63.416,  63.342
   9.544,9580812.000,  49.900,  30.120,  20.000,   0.000,   0.000,  60.544,  60.000
   9.604,9640664.000,  49.900,  29.400,  20.000,   0.000,   0.000,  59.852,  60.012
   9.664,9700504.000,  49.900,  29.000,  20.000,   0.000,   0.000,  59.840,  60.000
   9.724,9760984.000,  49.900,  29.070,  20.000,   0.000,   0.000,  60.480,  60.005
   9.784,9820908.000,  50.000,  29.600,  20.000,   0.000,   0.000,  59.924,  60.106
   9.844,9881448.000,  49.900,  30.320,  20.000,   0.000,   0.000,  60.540,  60.011
   9.904,9941248.000,  49.900,  31.180,  20.000,   0.000,   0.000,  59.800,  60.006
   9.966,10003948.000,  49.900,  31.900,  20.000,   0.000,   0.000,  62.700,  62.364
  10.026,10063788.000,  49.900,  32.170,  20.000,   0.000,   0.000,  59.840,  60.007
  10.086,10123532.000,  49.900,  32.040,  20.000,   0.000,   0.000,  59.744,  60.011
  10.146,10183436.000,  50.000,  31.510,  20.000,   0.000,   0.000,  59.904,  60.005
  10.208,10246164.000,  49.900,  30.650,  20.000,   0.000,   0.000,  62.728,  61.912
  10.268,10305964.000,  49.900,  29.860,  20.000,   0.000,   0.000,  59.800,  60.000
  10.328,10365844.000,  49.900,  29.140,  20.000,   0.000,   0.000,  59.880,  60.010
  10.389,10427864.000,  49.900,  29.000,  20.000,   0.000,   0.000,  62.020,  61.251
  10.469,10507884.000,  50.000,  29.270,  20.000,   0.000,   0.000,  80.020,  80.114
  10.545,10583608.000,  49.900,  30.120,  20.000,   0.000,   0.000,  75.724,  75.353
  10.637,10675224.000,  49.900,  31.250,  20.000,   0.000,   0.000,  91.616,  92.091
  10.697,10735756.000,  49.900,  31.770,  20.000,   0.000,   0.000,  60.532,  60.003
  10.758,10796292.000,  49.900,  32.040,  20.000,   0.000,   0.000,  60.536,  61.193
  10.818,10856800.000,  50.000,  31.770,  20.000,   0.000,   0.000,  60.508,  60.011
  10.878,10916604.000,  49.900,  31.250,  20.000,   0.000,   0.000,  59.804,  60.004
  10.938,10977180.000,  49.900,  30.450,  20.000,   0.000,   0.000,  60.576,  60.012
  10.998,11036992.000,  49.900,  29.790,  20.000,   0.000,   0.000,  59.812,  60.012
  11.058,11096776.000,  50.000,  29.330,  20.000,   0.000,   0.000,  59.784,  60.004
  11.118,11157272.000,  49.900,  29.270,  20.000,   0.000,   0.000,  60.496,  60.012
  11.178,11217108.000,  49.900,  29.600,  20.000,   0.000,   0.000,  59.836,  60.012
  11.238,11276968.000,  49.900,  30.120,  20.000,   0.000,   0.000,  59.860,  60.009
  11.298,11337608.000,  49.900,  30.650,  20.000,   0.000,   0.000,  60.640,  60.008
  11.358,11397508.000,  49.900,  31.180,  20.000,   0.000,   0.000,  59.900,  60.007
  11.418,11457332.000,  49.900,  31.440,  20.000,   0.000,   0.000,  59.824,  60.005
  11.478,11517916.000,  49.900,  31.380,  20.000,   0.000,   0.000,  60.584,  60.006
  11.538,11577708.000,  49.900,  31.110,  20.000,   0.000,   0.000,  59.792,  60.000
  11.598,11637568.000,  49.900,  30.590,  20.000,   0.000,   0.000,  59.860,  60.000
  11.658,11698116.000,  49.900,  30.060,  20.000,   0.000,   0.000,  60.548,  60.003
  11.718,11757952.000,  49.900,  29.600,  20.000,   0.000,   0.000,  59.836,  60.005
  11.778,11817752.000,  50.000,  29.400,  20.000,   0.000,   0.000,  59.800,  60.008
  11.838,11878284.000,  49.900,  29.400,  20.000,   0.000,   0.000,  60.532,  60.000
  11.898,11938112.000,  49.900,  29.660,  20.000,   0.000,   0.000,  59.828,  60.003
  11.958,11998624.000,  49.900,  30.190,  20.000,   0.000,   0.000,  60.512,  60.009
  12.018,12058436.000,  49.900,  30.650,  20.000,   0.000,   0.000,  59.812,  60.006
  12.078,12118280.000,  49.900,  30.980,  20.000,   0.000,   0.000,  59.844,  60.005
  12.138,12178852.000,  49.900,  31.180,  20.000,   0.000,   0.000,  60.572,  60.008
  12.198,12238672.000,  49.900,  31.110,  20.000,   0.000,   0.000,  59.820,  60.000
  12.258,12299216.000,  49.900,  30.850,  20.000,   0.000,   0.000,  60.544,  60.000
  12.318,12359032.000,  49.900,  30.320,  20.000,   0.000,   0.000,  59.816,  60.012
  12.378,12418848.000,  49.900,  29.860,  20.000,   0.000,   0.000,  59.816,  60.003
  12.438,12479400.000,  49.900,  29.530,  20.000,   0.000,   0.000,  60.552,  60.009
  12.500,12540596.000,  49.900,  29.400,  20.000,   0.000,   0.000,  61.196,  61.387
  12.560,12600388.000,  49.900,  29.600,  20.000,   0.000,   0.000,  59.792,  60.008
  12.620,12661004.000,  49.900,  30.060,  20.000,   0.000,   0.000,  60.616,  60.001
  12.682,12722992.000,  49.900,  30.720,  20.000,   0.000,   0.000,  61.988,  62.116
  12.742,12783616.000,  49.900,  31.510,  20.000,   0.000,   0.000,  60.624,  60.011
  12.802,12843376.000,  49.900,  32.170,  20.000,   0.000,   0.000,  59.760,  60.011
  12.867,12908888.000,  49.900,  32.500,  20.000,   0.000,   0.000,  65.512,  65.227
  12.927,12968612.000,  49.900,  32.300,  20.000,   0.000,   0.000,  59.724,  60.003
  12.987,13029100.000,  50.000,  31.900,  20.000,   0.000,   0.000,  60.488,  60.008
  13.047,13088900.000,  49.900,  31.180,  20.000,   0.000,   0.000,  59.800,  60.002
  13.107,13148728.000,  49.900,  30.590,  20.000,   0.000,   0.000,  59.828,  60.000
  13.168,13209996.000,  49.900,  30.060,  20.000,   0.000,   0.000,  61.268,  61.073
  13.228,13269848.000,  49.900,  29.930,  20.000,   0.000,   0.000,  59.852,  60.004
  13.288,13330428.000,  49.900,  30.190,  20.000,   0.000,   0.000,  60.580,  60.002
  13.348,13390240.000,  49.900,  30.850,  20.000,   0.000,   0.000,  59.812,  60.004
  13.408,13450088.000,  49.900,  31.440,  20.000,   0.000,   0.000,  59.848,  60.006
  13.468,13510632.000,  49.900,  31.970,  20.000,   0.000,   0.000,  60.544,  60.012
  13.528,13570300.000,  49.900,  32.230,  20.000,   0.000,   0.000,  59.668,  60.003
  13.588,13630788.000,  49.900,  32.170,  20.000,   0.000,   0.000,  60.488,  60.008
  13.648,13690540.000,  50.000,  31.770,  20.000,   0.000,   0.000,  59.752,  60.005
  13.708,13751040.000,  49.900,  31.250,  20.000,   0.000,   0.000,  60.500,  60.003
  13.768,13810808.000,  49.900,  30.720,  20.000,   0.000,   0.000,  59.768,  60.010
  13.828,13870672.000,  49.900,  30.320,  20.000,   0.000,   0.000,  59.864,  60.001
  13.888,13931212.000,  49.900,  30.120,  20.000,   0.000,   0.000,  60.540,  60.010
  13.949,13991820.000,  49.900,  30.190,  20.000,   0.000,   0.000,  60.608,  60.405
  14.009,14051696.000,  49.900,  30.650,  20.000,   0.000,   0.000,  59.876,  60.006
  14.069,14111524.000,  49.900,  31.180,  20.000,   0.000,   0.000,  59.828,  60.004
  14.129,14172036.000,  49.900,  31.710,  20.000,   0.000,   0.000,  60.512,  60.003
  14.189,14231864.000,  49.900,  32.040,  20.000,   0.000,   0.000,  59.828,  60.009
  14.249,14292372.000,  49.900,  32.170,  20.000,   0.000,   0.000,  60.508,  60.011
  14.309,14352100.000,  50.000,  31.970,  20.000,   0.000,   0.000,  59.728,  60.008
  14.369,14412640.000,  49.900,  31.640,  20.000,   0.000,   0.000,  60.540,  60.011
